#               time [ns]                      <n>
   0.0000000000000000E+00   0.0000000000000000E+00
   2.5012506253126565E-02   2.7453124433812849E-17
   5.0025012506253130E-02   2.7447782382451879E-15
   7.5037518759379696E-02   3.3609449731743002E-14
   1.0005002501250626E-01   1.9347446847557186E-13
   1.2506253126563283E-01   7.4592802260481514E-13
   1.5007503751875939E-01   2.2389779382656456E-12
   1.7508754377188596E-01   5.6604927225343505E-12
   2.0010005002501252E-01   1.2626647041977758E-11
   2.2511255627813909E-01   2.5602458574829881E-11
   2.5012506253126565E-01   4.8153345978456626E-11
   2.7513756878439222E-01   8.5226484869567776E-11
   3.0015007503751878E-01   1.4346059084999294E-10
   3.2516258129064535E-01   2.3152261633444241E-10
   3.5017508754377191E-01   3.6046971183878264E-10
   3.7518759379689848E-01   5.4413467303384246E-10
   4.0020010005002504E-01   7.9953297280459043E-10
   4.2521260630315161E-01   1.1472893632931809E-09
   4.5022511255627817E-01   1.6120819269362773E-09
   4.7523761880940474E-01   2.2231013582891822E-09
   5.0025012506253130E-01   3.0145231703899337E-09
   5.2526263131565787E-01   4.0259904409483249E-09
   5.5027513756878443E-01   5.3031046451060031E-09
   5.7528764382191100E-01   6.8979220632282582E-09
   6.0030015007503756E-01   8.8694532044407195E-09
   6.2531265632816413E-01   1.1284162649658370E-08
   6.5032516258129069E-01   1.4216466691886852E-08
   6.7533766883441726E-01   1.7749226136755588E-08
   7.0035017508754382E-01   2.1974231622722843E-08
   7.2536268134067039E-01   2.6992678828221800E-08
   7.5037518759379696E-01   3.2915630952272532E-08
   7.7538769384692352E-01   3.9864465885741458E-08
   8.0040020010005009E-01   4.7971305532454924E-08
   8.2541270635317676E-01   5.7379424792676716E-08
   8.5042521260630322E-01   6.8243637785920002E-08
   8.7543771885942978E-01   8.0730658965497692E-08
   9.0045022511255635E-01   9.5019436863425753E-08
   9.2546273136568291E-01   1.1130145830101233E-07
   9.5047523761880948E-01   1.2978102100740581E-07
   9.7548774387193604E-01   1.5067547270520870E-07
   1.0005002501250626E+00   1.7421541484858659E-07
   1.0255127563781892E+00   2.0064486933476829E-07
   1.0505252626313157E+00   2.3022140665389630E-07
   1.0755377688844423E+00   2.6321623409449240E-07
   1.1005502751375689E+00   2.9991424278168602E-07
   1.1255627813906954E+00   3.4061401249241363E-07
   1.1505752876438220E+00   3.8562777336535661E-07
   1.1755877938969486E+00   4.3528132380284938E-07
   1.2006003001500751E+00   4.8991390404679529E-07
   1.2256128064032017E+00   5.4987802510001154E-07
   1.2506253126563283E+00   6.1553925285780081E-07
   1.2756378189094548E+00   6.8727594751116359E-07
   1.3006503251625814E+00   7.6547895848220149E-07
   1.3256628314157080E+00   8.5055127535325480E-07
   1.3506753376688345E+00   9.4290763545328827E-07
   1.3756878439219611E+00   1.0429740889673807E-06
   1.4007003501750876E+00   1.1511875226370286E-06
   1.4257128564282142E+00   1.2679951433196014E-06
   1.4507253626813408E+00   1.3938539228738695E-06
   1.4757378689344673E+00   1.5292300060344322E-06
   1.5007503751875939E+00   1.6745980831301330E-06
   1.5257628814407205E+00   1.8304407296895493E-06
   1.5507753876938470E+00   1.9972477151595870E-06
   1.5757878939469736E+00   2.1755152831403244E-06
   1.6008004002001002E+00   2.3657454057098351E-06
   1.6258129064532270E+00   2.5684450145760670E-06
   1.6508254127063535E+00   2.7841252119481698E-06
   1.6758379189594801E+00   3.0133004641664936E-06
   1.7008504252126064E+00   3.2564877812678717E-06
   1.7258629314657330E+00   3.5142058857904116E-06
   1.7508754377188596E+00   3.7869743742389979E-06
   1.7758879439719861E+00   4.0753128747388123E-06
   1.8009004502251127E+00   4.3797402044983700E-06
   1.8259129564782393E+00   4.7007735307860248E-06
   1.8509254627313658E+00   5.0389275391934007E-06
   1.8759379689844924E+00   5.3947136130160830E-06
   1.9009504752376190E+00   5.7686390276250539E-06
   1.9259629814907455E+00   6.1612061637320787E-06
   1.9509754877438721E+00   6.5729117434677834E-06
   1.9759879939969986E+00   7.0042460931925501E-06
   2.0010005002501252E+00   7.4556924369470164E-06
   2.0260130065032516E+00   7.9277262244214757E-06
   2.0510255127563783E+00   8.4208144972807096E-06
   2.0760380190095047E+00   8.9354152976236186E-06
   2.1010505252626315E+00   9.4719771222847648E-06
   2.1260630315157578E+00   1.0030938426598260E-05
   2.1510755377688846E+00   1.0612727181142656E-05
   2.1760880440220109E+00   1.1217760484869569E-05
   2.2011005502751377E+00   1.1846444237888328E-05
   2.2261130565282641E+00   1.2499172877034418E-05
   2.2511255627813909E+00   1.3176329177191209E-05
   2.2761380690345177E+00   1.3878284121162854E-05
   2.3011505752876440E+00   1.4605396840711313E-05
   2.3261630815407708E+00   1.5358014631173285E-05
   2.3511755877938971E+00   1.6136473041863248E-05
   2.3761880940470239E+00   1.6941096044248024E-05
   2.4012006003001503E+00   1.7772196279646038E-05
   2.4262131065532770E+00   1.8630075387962372E-05
   2.4512256128064034E+00   1.9515024418718704E-05
   2.4762381190595302E+00   2.0427324325376461E-05
   2.5012506253126565E+00   2.1367246543681816E-05
   2.5262631315657829E+00   2.2335053654485892E-05
   2.5512756378189096E+00   2.3331000131209148E-05
   2.5762881440720360E+00   2.4355333171830944E-05
   2.6013006503251628E+00   2.5408293614991734E-05
   2.6263131565782891E+00   2.6490116939497343E-05
   2.6513256628314159E+00   2.7601034346214778E-05
   2.6763381690845423E+00   2.8741273921046444E-05
   2.7013506753376690E+00   2.9911061877365958E-05
   2.7263631815907954E+00   3.1110623875995615E-05
   2.7513756878439222E+00   3.2340186420502935E-05
   2.7763881940970485E+00   3.3599978325292632E-05
   2.8014007003501753E+00   3.4890232253674266E-05
   2.8264132066033016E+00   3.6211186322790898E-05
   2.8514257128564284E+00   3.7563085772006901E-05
   2.8764382191095548E+00   3.8946184691070329E-05
   2.9014507253626816E+00   4.0360747804091023E-05
   2.9264632316158083E+00   4.1807052305107458E-05
   2.9514757378689347E+00   4.3285389740759566E-05
   2.9764882441220615E+00   4.4796067935335671E-05
   3.0015007503751878E+00   4.6339412953226401E-05
   3.0265132566283146E+00   4.7915771093593367E-05
   3.0515257628814410E+00   4.9525510911850435E-05
   3.0765382691345677E+00   5.1169025262355973E-05
   3.1015507753876941E+00   5.2846733356534362E-05
   3.1265632816408209E+00   5.4559082830475325E-05
   3.1515757878939472E+00   5.6306551815910971E-05
   3.1765882941470736E+00   5.8089651008335719E-05
   3.2016008004002003E+00   5.9908925725918288E-05
   3.2266133066533267E+00   6.1764957952758039E-05
   3.2516258129064539E+00   6.3658368359958658E-05
   3.2766383191595803E+00   6.5589818297934091E-05
   3.3016508254127070E+00   6.7560011753321905E-05
   3.3266633316658334E+00   6.9569697263861636E-05
   3.3516758379189602E+00   7.1619669784597637E-05
   3.3766883441720865E+00   7.3710772498789502E-05
   3.4017008504252129E+00   7.5843898566959052E-05
   3.4267133566783397E+00   7.8019992807568659E-05
   3.4517258629314660E+00   8.0240053302914699E-05
   3.4767383691845928E+00   8.2505132923929700E-05
   3.5017508754377191E+00   8.4816340767720583E-05
   3.5267633816908459E+00   8.7174843501820450E-05
   3.5517758879439723E+00   8.9581866609312179E-05
   3.5767883941970990E+00   9.2038695529173984E-05
   3.6018009004502254E+00   9.4546676686417457E-05
   3.6268134067033522E+00   9.7107218406827241E-05
   3.6518259129564785E+00   9.9721791711369887E-05
   3.6768384192096053E+00   1.0239193098561746E-04
   3.7018509254627316E+00   1.0511923451983219E-04
   3.7268634317158584E+00   1.0790536491567131E-04
   3.7518759379689848E+00   1.1075204935580945E-04
   3.7768884442221116E+00   1.1366107973312647E-04
   3.8019009504752379E+00   1.1663431263647450E-04
   3.8269134567283642E+00   1.1967366919042713E-04
   3.8519259629814910E+00   1.2278113474680665E-04
   3.8769384692346174E+00   1.2595875842619914E-04
   3.9019509754877442E+00   1.2920865250809282E-04
   3.9269634817408705E+00   1.3253299166870989E-04
   3.9519759879939973E+00   1.3593401206604536E-04
   3.9769884942471236E+00   1.3941401027208776E-04
   4.0020010005002504E+00   1.4297534205265312E-04
   4.0270135067533772E+00   1.4662042099573640E-04
   4.0520260130065031E+00   1.5035171698975903E-04
   4.0770385192596299E+00   1.5417175455356783E-04
   4.1020510255127567E+00   1.5808311102052418E-04
   4.1270635317658835E+00   1.6208841457950089E-04
   4.1520760380190094E+00   1.6619034217608944E-04
   4.1770885442721362E+00   1.7039161727779601E-04
   4.2021010505252629E+00   1.7469500750748389E-04
   4.2271135567783888E+00   1.7910332214979088E-04
   4.2521260630315156E+00   1.8361940953571314E-04
   4.2771385692846424E+00   1.8824615431100805E-04
   4.3021510755377692E+00   1.9298647459451259E-04
   4.3271635817908951E+00   1.9784331903291473E-04
   4.3521760880440219E+00   2.0281966375893873E-04
   4.3771885942971487E+00   2.0791850926031458E-04
   4.4022011005502755E+00   2.1314287716730327E-04
   4.4272136068034014E+00   2.1849580696692313E-04
   4.4522261130565282E+00   2.2398035265239023E-04
   4.4772386193096549E+00   2.2959957931662287E-04
   4.5022511255627817E+00   2.3535655969898704E-04
   4.5272636318159085E+00   2.4125437069475632E-04
   4.5522761380690353E+00   2.4729608983704062E-04
   4.5772886443221621E+00   2.5348479176118629E-04
   4.6023011505752880E+00   2.5982354466188212E-04
   4.6273136568284148E+00   2.6631540675340736E-04
   4.6523261630815416E+00   2.7296342274362741E-04
   4.6773386693346675E+00   2.7977062033249293E-04
   4.7023511755877943E+00   2.8674000674591514E-04
   4.7273636818409210E+00   2.9387456531597406E-04
   4.7523761880940478E+00   3.0117725211847195E-04
   4.7773886943471737E+00   3.0865099267887860E-04
   4.8024012006003005E+00   3.1629867875769302E-04
   4.8274137068534273E+00   3.2412316522622371E-04
   4.8524262131065541E+00   3.3212726704370571E-04
   4.8774387193596800E+00   3.4031375634657594E-04
   4.9024512256128068E+00   3.4868535966058907E-04
   4.9274637318659336E+00   3.5724475524628521E-04
   4.9524762381190603E+00   3.6599457058811974E-04
   4.9774887443721862E+00   3.7493738003732582E-04
   5.0025012506253130E+00   3.8407570261831916E-04
   5.0275137568784398E+00   3.9341200000813796E-04
   5.0525262631315657E+00   4.0294867469809940E-04
   5.0775387693846925E+00   4.1268806834646708E-04
   5.1025512756378193E+00   4.2263246033054174E-04
   5.1275637818909461E+00   4.3278406650615770E-04
   5.1525762881440720E+00   4.4314503818211024E-04
   5.1775887943971988E+00   4.5371746131655366E-04
   5.2026013006503256E+00   4.6450335594190416E-04
   5.2276138069034523E+00   4.7550467582423102E-04
   5.2526263131565782E+00   4.8672330836257077E-04
   5.2776388194097050E+00   4.9816107473299529E-04
   5.3026513256628318E+00   5.0981973028166056E-04
   5.3276638319159586E+00   5.2170096517043711E-04
   5.3526763381690845E+00   5.3380640527805466E-04
   5.3776888444222113E+00   5.4613761335903157E-04
   5.4027013506753381E+00   5.5869609046197311E-04
   5.4277138569284640E+00   5.7148327760811978E-04
   5.4527263631815908E+00   5.8450055773029896E-04
   5.4777388694347176E+00   5.9774925787171808E-04
   5.5027513756878443E+00   6.1123065164330045E-04
   5.5277638819409702E+00   6.2494596193750894E-04
   5.5527763881940970E+00   6.3889636389585899E-04
   5.5777888944472238E+00   6.5308298812657181E-04
   5.6028014007003506E+00   6.6750692416805242E-04
   5.6278139069534765E+00   6.8216922419313914E-04
   5.6528264132066033E+00   6.9707090694828952E-04
   5.6778389194597301E+00   7.1221296192115996E-04
   5.7028514257128569E+00   7.2759635372925536E-04
   5.7278639319659828E+00   7.4322202672162847E-04
   5.7528764382191095E+00   7.5909090978485891E-04
   5.7778889444722372E+00   7.7520392134385920E-04
   5.8029014507253631E+00   7.9156197454735328E-04
   5.8279139569784899E+00   8.0816598262719891E-04
   5.8529264632316167E+00   8.2501686442007570E-04
   5.8779389694847435E+00   8.4211555003943072E-04
   5.9029514757378694E+00   8.5946298668497241E-04
   5.9279639819909962E+00   8.7706014457640178E-04
   5.9529764882441230E+00   8.9490802299754899E-04
   5.9779889944972489E+00   9.1300765643653606E-04
   6.0030015007503756E+00   9.3136012080710412E-04
   6.0280140070035024E+00   9.4996653973579599E-04
   6.0530265132566292E+00   9.6882809089924931E-04
   6.0780390195097551E+00   9.8794601239548521E-04
   6.1030515257628819E+00   1.0073216091327122E-03
   6.1280640320160087E+00   1.0269562592188943E-03
   6.1530765382691355E+00   1.0468514203350284E-03
   6.1780890445222614E+00   1.0670086360748822E-03
   6.2031015507753882E+00   1.0874295422337633E-03
   6.2281140570285149E+00   1.1081158730287500E-03
   6.2531265632816417E+00   1.1290694672327333E-03
   6.2781390695347676E+00   1.1502922742045831E-03
   6.3031515757878944E+00   1.1717863597977597E-03
   6.3281640820410212E+00   1.1935539121297417E-03
   6.3531765882941471E+00   1.2155972471947693E-03
   6.3781890945472739E+00   1.2379188143025173E-03
   6.4032016008004007E+00   1.2605212013255566E-03
   6.4282141070535275E+00   1.2834071397387079E-03
   6.4532266133066534E+00   1.3065795094336669E-03
   6.4782391195597802E+00   1.3300413432926637E-03
   6.5032516258129078E+00   1.3537958315053226E-03
   6.5282641320660337E+00   1.3778463256132907E-03
   6.5532766383191605E+00   1.4021963422677960E-03
   6.5782891445722864E+00   1.4268495666856962E-03
   6.6033016508254141E+00   1.4518098557903488E-03
   6.6283141570785400E+00   1.4770812410241046E-03
   6.6533266633316668E+00   1.5026679308200051E-03
   6.6783391695847927E+00   1.5285743127209696E-03
   6.7033516758379204E+00   1.5548049551355018E-03
   6.7283641820910454E+00   1.5813646087197595E-03
   6.7533766883441730E+00   1.6082582073766803E-03
   6.7783891945972989E+00   1.6354908688637371E-03
   6.8034017008504257E+00   1.6630678950018104E-03
   6.8284142071035516E+00   1.6909947714785782E-03
   6.8534267133566793E+00   1.7192771672408572E-03
   6.8784392196098052E+00   1.7479209334713018E-03
   6.9034517258629320E+00   1.7769321021458831E-03
   6.9284642321160579E+00   1.8063168841696657E-03
   6.9534767383691856E+00   1.8360816670894367E-03
   6.9784892446223115E+00   1.8662330123828501E-03
   7.0035017508754382E+00   1.8967776523248594E-03
   7.0285142571285641E+00   1.9277224864333318E-03
   7.0535267633816918E+00   1.9590745774968636E-03
   7.0785392696348177E+00   1.9908411471889508E-03
   7.1035517758879445E+00   2.0230295712738125E-03
   7.1285642821410704E+00   2.0556473744103229E-03
   7.1535767883941981E+00   2.0887022245616341E-03
   7.1785892946473240E+00   2.1222019270191830E-03
   7.2036018009004508E+00   2.1561544180509402E-03
   7.2286143071535767E+00   2.1905677581848821E-03
   7.2536268134067043E+00   2.2254501251396928E-03
   7.2786393196598302E+00   2.2608098064158949E-03
   7.3036518259129570E+00   2.2966551915615655E-03
   7.3286643321660829E+00   2.3329947641279047E-03
   7.3536768384192106E+00   2.3698370933308887E-03
   7.3786893446723365E+00   2.4071908254362697E-03
   7.4037018509254633E+00   2.4450646748860601E-03
   7.4287143571785892E+00   2.4834674151856294E-03
   7.4537268634317169E+00   2.5224078695713649E-03
   7.4787393696848419E+00   2.5618949014796790E-03
   7.5037518759379696E+00   2.6019374048389726E-03
   7.5287643821910955E+00   2.6425442942068634E-03
   7.5537768884442231E+00   2.6837244947756694E-03
   7.5787893946973481E+00   2.7254869322698673E-03
   7.6038019009504758E+00   2.7678405227596803E-03
   7.6288144072036017E+00   2.8107941624156258E-03
   7.6538269134567285E+00   2.8543567172292297E-03
   7.6788394197098544E+00   2.8985370127255368E-03
   7.7038519259629821E+00   2.9433438236934604E-03
   7.7288644322161089E+00   2.9887858639601889E-03
   7.7538769384692348E+00   3.0348717762361836E-03
   7.7788894447223624E+00   3.0816101220573705E-03
   7.8039019509754883E+00   3.1290093718513196E-03
   7.8289144572286151E+00   3.1770778951540493E-03
   7.8539269634817410E+00   3.2258239510042754E-03
   7.8789394697348687E+00   3.2752556785415302E-03
   7.9039519759879946E+00   3.3253810878345943E-03
   7.9289644822411214E+00   3.3762080509663387E-03
   7.9539769884942473E+00   3.4277442934006704E-03
   7.9789894947473750E+00   3.4799973856570014E-03
   8.0040020010005009E+00   3.5329747353170307E-03
   8.0290145072536276E+00   3.5866835793881991E-03
   8.0540270135067544E+00   3.6411309770475013E-03
   8.0790395197598812E+00   3.6963238027886056E-03
   8.1040520260130062E+00   3.7522687399945574E-03
   8.1290645322661348E+00   3.8089722749574842E-03
   8.1540770385192598E+00   3.8664406913657703E-03
   8.1790895447723866E+00   3.9246800652783000E-03
   8.2041020510255134E+00   3.9836962606043125E-03
   8.2291145572786402E+00   4.0434949251063074E-03
   8.2541270635317670E+00   4.1040814869423561E-03
   8.2791395697848937E+00   4.1654611517629274E-03
   8.3041520760380187E+00   4.2276389003761518E-03
   8.3291645822911473E+00   4.2906194869941055E-03
   8.3541770885442723E+00   4.3544074380713416E-03
   8.3791895947973991E+00   4.4190070517455878E-03
   8.4042021010505259E+00   4.4844223978890161E-03
   8.4292146073036527E+00   4.5506573187770183E-03
   8.4542271135567777E+00   4.6177154303800594E-03
   8.4792396198099063E+00   4.6856001242823932E-03
   8.5042521260630313E+00   4.7543145702301608E-03
   8.5292646323161581E+00   4.8238617193095473E-03
   8.5542771385692848E+00   4.8942443077542525E-03
   8.5792896448224116E+00   4.9654648613797602E-03
   8.6043021510755384E+00   5.0375257006404408E-03
   8.6293146573286652E+00   5.1104289463036493E-03
   8.6543271635817902E+00   5.1841765257335578E-03
   8.6793396698349188E+00   5.2587701797756521E-03
   8.7043521760880438E+00   5.3342114702313549E-03
   8.7293646823411706E+00   5.4105017879103063E-03
   8.7543771885942974E+00   5.4876423612466672E-03
   8.7793896948474242E+00   5.5656342654637472E-03
   8.8044022011005509E+00   5.6444784322699920E-03
   8.8294147073536777E+00   5.7241756600677337E-03
   8.8544272136068027E+00   5.8047266246545022E-03
   8.8794397198599313E+00   5.8861318903953548E-03
   8.9044522261130563E+00   5.9683919218430975E-03
   8.9294647323661831E+00   6.0515070957819885E-03
   8.9544772386193099E+00   6.1354777136691267E-03
   8.9794897448724367E+00   6.2203040144462995E-03
   9.0045022511255635E+00   6.3059861876940976E-03
   9.0295147573786902E+00   6.3925243870985825E-03
   9.0545272636318170E+00   6.4799187441999641E-03
   9.0795397698849438E+00   6.5681693823915104E-03
   9.1045522761380706E+00   6.6572764311359691E-03
   9.1295647823911956E+00   6.7472400403658468E-03
   9.1545772886443242E+00   6.8380603950331798E-03
   9.1795897948974492E+00   6.9297377297735125E-03
   9.2046023011505760E+00   7.0222723436481043E-03
   9.2296148074037028E+00   7.1156646149280892E-03
   9.2546273136568296E+00   7.2099150158833874E-03
   9.2796398199099546E+00   7.3050241275390915E-03
   9.3046523261630831E+00   7.4009926543615471E-03
   9.3296648324162081E+00   7.4978214388362191E-03
   9.3546773386693349E+00   7.5955114758991778E-03
   9.3796898449224617E+00   7.6940639271841872E-03
   9.4047023511755885E+00   7.7934801350472132E-03
   9.4297148574287153E+00   7.8937616363305135E-03
   9.4547273636818421E+00   7.9949101758286581E-03
   9.4797398699349671E+00   8.0969277194190108E-03
   9.5047523761880957E+00   8.1998164668201663E-03
   9.5297648824412207E+00   8.3035788639416325E-03
   9.5547773886943475E+00   8.4082176147893678E-03
   9.5797898949474742E+00   8.5137356928922381E-03
   9.6048024012006010E+00   8.6201363522151169E-03
   9.6298149074537278E+00   8.7274231375259487E-03
   9.6548274137068546E+00   8.8355998941840874E-03
   9.6798399199599796E+00   8.9446707773193981E-03
   9.7048524262131082E+00   9.0546402603722490E-03
   9.7298649324662332E+00   9.1655131429657765E-03
   9.7548774387193600E+00   9.2772945580835674E-03
